   arc_length_s     gamma_x(s)       gamma_y(s)    gamma_z(s)
0.000000e+00 0.000000e+00 0.000000e+00 5.000000e+01
4.000000e-01 4.000000e-01 0.000000e+00 5.000000e+01
8.000000e-01 7.999200e-01 7.999466e-03 5.000000e+01
1.200000e+00 1.199600e+00 2.399520e-02 5.000000e+01
1.600000e+00 1.598880e+00 4.798080e-02 5.000000e+01
2.000000e+00 1.997601e+00 7.994668e-02 5.000000e+01
2.399999e+00 2.395602e+00 1.198800e-01 5.000000e+01
2.800000e+00 2.792726e+00 1.677649e-01 5.000000e+01
3.200000e+00 3.188812e+00 2.235822e-01 5.000000e+01
3.600001e+00 3.583704e+00 2.873094e-01 5.000000e+01
3.999999e+00 3.977240e+00 3.589212e-01 5.000000e+01
4.400000e+00 4.369268e+00 4.383890e-01 5.000000e+01
4.800000e+00 4.759626e+00 5.256808e-01 5.000000e+01
5.200000e+00 5.148162e+00 6.207620e-01 5.000000e+01
5.600000e+00 5.534718e+00 7.235942e-01 5.000000e+01
6.000000e+00 5.919140e+00 8.341364e-01 5.000000e+01
6.400000e+00 6.301274e+00 9.523444e-01 5.000000e+01
6.799999e+00 6.680968e+00 1.078171e+00 5.000000e+01
7.200000e+00 7.058070e+00 1.211566e+00 5.000000e+01
7.600001e+00 7.432430e+00 1.352476e+00 5.000000e+01
8.000001e+00 7.803896e+00 1.500844e+00 5.000000e+01
8.400001e+00 8.172320e+00 1.656611e+00 5.000000e+01
8.800001e+00 8.537556e+00 1.819715e+00 5.000000e+01
9.200000e+00 8.899456e+00 1.990091e+00 5.000000e+01
9.599999e+00 9.257876e+00 2.167670e+00 5.000000e+01
9.999999e+00 9.612674e+00 2.352382e+00 5.000000e+01
1.040000e+01 9.963708e+00 2.544152e+00 5.000000e+01
1.080000e+01 1.031084e+01 2.742904e+00 5.000000e+01
1.120000e+01 1.065392e+01 2.948558e+00 5.000000e+01
1.160000e+01 1.099282e+01 3.161034e+00 5.000000e+01
1.200000e+01 1.132741e+01 3.380242e+00 5.000000e+01
1.240000e+01 1.165754e+01 3.606100e+00 5.000000e+01
1.280000e+01 1.198309e+01 3.838514e+00 5.000000e+01
1.320000e+01 1.230393e+01 4.077392e+00 5.000000e+01
1.360000e+01 1.261993e+01 4.322638e+00 5.000000e+01
1.400000e+01 1.293096e+01 4.574156e+00 5.000000e+01
1.440000e+01 1.323689e+01 4.831844e+00 5.000000e+01
1.480000e+01 1.353761e+01 5.095596e+00 5.000000e+01
1.520000e+01 1.383300e+01 5.365312e+00 5.000000e+01
1.560000e+01 1.412294e+01 5.640880e+00 5.000000e+01
1.600000e+01 1.440730e+01 5.922192e+00 5.000000e+01
1.640000e+01 1.468598e+01 6.209134e+00 5.000000e+01
1.680000e+01 1.495887e+01 6.501594e+00 5.000000e+01
1.720000e+01 1.522586e+01 6.799450e+00 5.000000e+01
1.760000e+01 1.548683e+01 7.102588e+00 5.000000e+01
1.800000e+01 1.574169e+01 7.410882e+00 5.000000e+01
1.840000e+01 1.599034e+01 7.724214e+00 5.000000e+01
1.880000e+01 1.623267e+01 8.042454e+00 5.000000e+01
1.920000e+01 1.646858e+01 8.365478e+00 5.000000e+01
1.960000e+01 1.669799e+01 8.693154e+00 5.000000e+01
2.000000e+01 1.692080e+01 9.025354e+00 5.000000e+01
2.040000e+01 1.713692e+01 9.361942e+00 5.000000e+01
2.080000e+01 1.734627e+01 9.702784e+00 5.000000e+01
2.120000e+01 1.754875e+01 1.004775e+01 5.000000e+01
2.160000e+01 1.774430e+01 1.039669e+01 5.000000e+01
2.200000e+01 1.793283e+01 1.074947e+01 5.000000e+01
2.240000e+01 1.811427e+01 1.110595e+01 5.000000e+01
2.280000e+01 1.828855e+01 1.146599e+01 5.000000e+01
2.320000e+01 1.845558e+01 1.182945e+01 5.000000e+01
2.360000e+01 1.861532e+01 1.219617e+01 5.000000e+01
2.400000e+01 1.876769e+01 1.256601e+01 5.000000e+01
2.440000e+01 1.891263e+01 1.293883e+01 5.000000e+01
2.480000e+01 1.905009e+01 1.331447e+01 5.000000e+01
2.520000e+01 1.918001e+01 1.369278e+01 5.000000e+01
2.560000e+01 1.930234e+01 1.407362e+01 5.000000e+01
2.600000e+01 1.941702e+01 1.445682e+01 5.000000e+01
2.640000e+01 1.952402e+01 1.484225e+01 5.000000e+01
2.680000e+01 1.962329e+01 1.522973e+01 5.000000e+01
2.720000e+01 1.971479e+01 1.561913e+01 5.000000e+01
2.760000e+01 1.979849e+01 1.601027e+01 5.000000e+01
2.800000e+01 1.987434e+01 1.640301e+01 5.000000e+01
2.840000e+01 1.994233e+01 1.679719e+01 5.000000e+01
2.880000e+01 2.000242e+01 1.719265e+01 5.000000e+01
2.920000e+01 2.005460e+01 1.758924e+01 5.000000e+01
2.960000e+01 2.009882e+01 1.798679e+01 5.000000e+01
3.000000e+01 2.013508e+01 1.838514e+01 5.000000e+01
3.040000e+01 2.016338e+01 1.878414e+01 5.000000e+01
3.080000e+01 2.018370e+01 1.918362e+01 5.000000e+01
3.120000e+01 2.019600e+01 1.958343e+01 5.000000e+01
3.160000e+01 2.020032e+01 1.998341e+01 5.000000e+01
3.199999e+01 2.019664e+01 2.038338e+01 5.000000e+01
3.240000e+01 2.018496e+01 2.078322e+01 5.000000e+01
3.280000e+01 2.016530e+01 2.118274e+01 5.000000e+01
3.320000e+01 2.013764e+01 2.158178e+01 5.000000e+01
3.359999e+01 2.010200e+01 2.198018e+01 5.000000e+01
3.400000e+01 2.005840e+01 2.237780e+01 5.000000e+01
3.440001e+01 2.000686e+01 2.277448e+01 5.000000e+01
3.479999e+01 1.994741e+01 2.317002e+01 5.000000e+01
3.520001e+01 1.988005e+01 2.356432e+01 5.000000e+01
3.560000e+01 1.980482e+01 2.395718e+01 5.000000e+01
3.600001e+01 1.972174e+01 2.434846e+01 5.000000e+01
3.640001e+01 1.963086e+01 2.473800e+01 5.000000e+01
3.680000e+01 1.953221e+01 2.512564e+01 5.000000e+01
3.720001e+01 1.942582e+01 2.551124e+01 5.000000e+01
3.760000e+01 1.931175e+01 2.589462e+01 5.000000e+01
3.799999e+01 1.919003e+01 2.627564e+01 5.000000e+01
3.839999e+01 1.906071e+01 2.665416e+01 5.000000e+01
3.879999e+01 1.892385e+01 2.703002e+01 5.000000e+01
3.920001e+01 1.877950e+01 2.740308e+01 5.000000e+01
3.960000e+01 1.862772e+01 2.777316e+01 5.000000e+01
4.000001e+01 1.846857e+01 2.814014e+01 5.000000e+01
4.040001e+01 1.830211e+01 2.850386e+01 5.000000e+01
4.079999e+01 1.812841e+01 2.886416e+01 5.000000e+01
4.120000e+01 1.794754e+01 2.922094e+01 5.000000e+01
4.160000e+01 1.775957e+01 2.957402e+01 5.000000e+01
4.200000e+01 1.756458e+01 2.992328e+01 5.000000e+01
4.240000e+01 1.736264e+01 3.026856e+01 5.000000e+01
4.280000e+01 1.715384e+01 3.060974e+01 5.000000e+01
4.319999e+01 1.693825e+01 3.094666e+01 5.000000e+01
4.360000e+01 1.671598e+01 3.127922e+01 5.000000e+01
4.400000e+01 1.648709e+01 3.160726e+01 5.000000e+01
4.440000e+01 1.625169e+01 3.193066e+01 5.000000e+01
4.479999e+01 1.600987e+01 3.224928e+01 5.000000e+01
4.520000e+01 1.576172e+01 3.256302e+01 5.000000e+01
4.560000e+01 1.550735e+01 3.287172e+01 5.000000e+01
4.599999e+01 1.524686e+01 3.317526e+01 5.000000e+01
4.640001e+01 1.498035e+01 3.347356e+01 5.000000e+01
4.680000e+01 1.470793e+01 3.376644e+01 5.000000e+01
4.719999e+01 1.442970e+01 3.405382e+01 5.000000e+01
4.760000e+01 1.414579e+01 3.433560e+01 5.000000e+01
4.800000e+01 1.385629e+01 3.461162e+01 5.000000e+01
4.839999e+01 1.356133e+01 3.488180e+01 5.000000e+01
4.880000e+01 1.326103e+01 3.514604e+01 5.000000e+01
4.920000e+01 1.295551e+01 3.540422e+01 5.000000e+01
4.960000e+01 1.264488e+01 3.565622e+01 5.000000e+01
5.000000e+01 1.232927e+01 3.590198e+01 5.000000e+01
5.040000e+01 1.200882e+01 3.614136e+01 5.000000e+01
5.080000e+01 1.168363e+01 3.637430e+01 5.000000e+01
5.120000e+01 1.135386e+01 3.660068e+01 5.000000e+01
5.160000e+01 1.101962e+01 3.682042e+01 5.000000e+01
5.200000e+01 1.068106e+01 3.703344e+01 5.000000e+01
5.240000e+01 1.033831e+01 3.723964e+01 5.000000e+01
5.280000e+01 9.991496e+00 3.743894e+01 5.000000e+01
5.320000e+01 9.640768e+00 3.763128e+01 5.000000e+01
5.360000e+01 9.286264e+00 3.781654e+01 5.000000e+01
5.400000e+01 8.928128e+00 3.799470e+01 5.000000e+01
5.440000e+01 8.566498e+00 3.816564e+01 5.000000e+01
5.480000e+01 8.201522e+00 3.832934e+01 5.000000e+01
5.519999e+01 7.833348e+00 3.848568e+01 5.000000e+01
5.560000e+01 7.462118e+00 3.863464e+01 5.000000e+01
5.600000e+01 7.087984e+00 3.877616e+01 5.000000e+01
5.640000e+01 6.711096e+00 3.891014e+01 5.000000e+01
5.680000e+01 6.331602e+00 3.903658e+01 5.000000e+01
5.720000e+01 5.949656e+00 3.915540e+01 5.000000e+01
5.760000e+01 5.565410e+00 3.926656e+01 5.000000e+01
5.800000e+01 5.179018e+00 3.937000e+01 5.000000e+01
5.840000e+01 4.790636e+00 3.946570e+01 5.000000e+01
5.880000e+01 4.400416e+00 3.955362e+01 5.000000e+01
5.920000e+01 4.008516e+00 3.963370e+01 5.000000e+01
5.960000e+01 3.615094e+00 3.970594e+01 5.000000e+01
6.000000e+01 3.220304e+00 3.977030e+01 5.000000e+01
6.040000e+01 2.824308e+00 3.982674e+01 5.000000e+01
6.080000e+01 2.427260e+00 3.987526e+01 5.000000e+01
6.120000e+01 2.029324e+00 3.991584e+01 5.000000e+01
6.160000e+01 1.630654e+00 3.994844e+01 5.000000e+01
6.200000e+01 1.231413e+00 3.997306e+01 5.000000e+01
6.240000e+01 8.317584e-01 3.998968e+01 5.000000e+01
6.280000e+01 4.318518e-01 3.999832e+01 5.000000e+01
6.320000e+01 3.185226e-02 3.999896e+01 5.000000e+01
6.360000e+01 -3.680800e-01 3.999160e+01 5.000000e+01
6.400000e+01 -7.677850e-01 3.997624e+01 5.000000e+01
6.440000e+01 -1.167103e+00 3.995288e+01 5.000000e+01
6.480000e+01 -1.565874e+00 3.992156e+01 5.000000e+01
6.520000e+01 -1.963939e+00 3.988226e+01 5.000000e+01
6.560000e+01 -2.361138e+00 3.983500e+01 5.000000e+01
6.600000e+01 -2.757312e+00 3.977982e+01 5.000000e+01
6.640000e+01 -3.152304e+00 3.971672e+01 5.000000e+01
6.680311e+01 -3.545956e+00 3.964574e+01 5.005000e+01
6.720622e+01 -3.938108e+00 3.956690e+01 5.010000e+01
6.760934e+01 -4.328606e+00 3.948022e+01 5.015000e+01
6.801245e+01 -4.717292e+00 3.938576e+01 5.020000e+01
6.841557e+01 -5.104012e+00 3.928354e+01 5.025000e+01
6.881868e+01 -5.488610e+00 3.917362e+01 5.030000e+01
6.922179e+01 -5.870932e+00 3.905602e+01 5.035000e+01
6.962490e+01 -6.250826e+00 3.893080e+01 5.040000e+01
7.002802e+01 -6.628140e+00 3.879800e+01 5.045000e+01
7.043113e+01 -7.002722e+00 3.865768e+01 5.050000e+01
7.083424e+01 -7.374424e+00 3.850990e+01 5.055000e+01
7.123736e+01 -7.743096e+00 3.835472e+01 5.060000e+01
7.164047e+01 -8.108590e+00 3.819220e+01 5.065000e+01
7.204358e+01 -8.470762e+00 3.802240e+01 5.070000e+01
7.244669e+01 -8.829466e+00 3.784540e+01 5.075000e+01
7.284980e+01 -9.184558e+00 3.766126e+01 5.080000e+01
7.325292e+01 -9.535896e+00 3.747004e+01 5.085000e+01
7.365603e+01 -9.883340e+00 3.727184e+01 5.090000e+01
7.405914e+01 -1.022675e+01 3.706674e+01 5.095000e+01
7.446226e+01 -1.056599e+01 3.685480e+01 5.100000e+01
7.486537e+01 -1.090092e+01 3.663612e+01 5.105000e+01
7.526848e+01 -1.123142e+01 3.641080e+01 5.110000e+01
7.567159e+01 -1.155734e+01 3.617890e+01 5.115000e+01
7.607470e+01 -1.187856e+01 3.594054e+01 5.120000e+01
7.647783e+01 -1.219494e+01 3.569578e+01 5.125000e+01
7.688094e+01 -1.250637e+01 3.544476e+01 5.130000e+01
7.728405e+01 -1.281272e+01 3.518756e+01 5.135000e+01
7.768716e+01 -1.311386e+01 3.492430e+01 5.140000e+01
7.809028e+01 -1.340968e+01 3.465504e+01 5.145000e+01
7.849339e+01 -1.370005e+01 3.437994e+01 5.150000e+01
7.889650e+01 -1.398486e+01 3.409908e+01 5.155000e+01
7.929962e+01 -1.426400e+01 3.381258e+01 5.160000e+01
7.970273e+01 -1.453736e+01 3.352056e+01 5.165000e+01
8.010583e+01 -1.480482e+01 3.322314e+01 5.170000e+01
8.050896e+01 -1.506627e+01 3.292040e+01 5.175000e+01
8.091206e+01 -1.532163e+01 3.261252e+01 5.180000e+01
8.131518e+01 -1.557077e+01 3.229958e+01 5.185000e+01
8.171828e+01 -1.581360e+01 3.198174e+01 5.190000e+01
8.212140e+01 -1.605003e+01 3.165908e+01 5.195000e+01
8.252451e+01 -1.627996e+01 3.133178e+01 5.200000e+01
8.292764e+01 -1.650330e+01 3.099992e+01 5.205000e+01
8.333074e+01 -1.671996e+01 3.066368e+01 5.210000e+01
8.373385e+01 -1.692984e+01 3.032318e+01 5.215000e+01
8.413696e+01 -1.713288e+01 2.997854e+01 5.220000e+01
8.454008e+01 -1.732899e+01 2.962990e+01 5.225000e+01
8.494320e+01 -1.751808e+01 2.927742e+01 5.230000e+01
8.534630e+01 -1.770009e+01 2.892124e+01 5.235000e+01
8.574943e+01 -1.787493e+01 2.856146e+01 5.240000e+01
8.615253e+01 -1.804255e+01 2.819828e+01 5.245000e+01
8.655564e+01 -1.820287e+01 2.783182e+01 5.250000e+01
8.695875e+01 -1.835583e+01 2.746222e+01 5.255000e+01
8.736186e+01 -1.850136e+01 2.708964e+01 5.260000e+01
8.776497e+01 -1.863942e+01 2.671422e+01 5.265000e+01
8.816810e+01 -1.876994e+01 2.633610e+01 5.270000e+01
8.857121e+01 -1.889287e+01 2.595546e+01 5.275000e+01
8.897432e+01 -1.900817e+01 2.557244e+01 5.280000e+01
8.937744e+01 -1.911578e+01 2.518718e+01 5.285000e+01
8.978055e+01 -1.921567e+01 2.479986e+01 5.290000e+01
9.018365e+01 -1.930779e+01 2.441062e+01 5.295000e+01
9.058677e+01 -1.939211e+01 2.401960e+01 5.300000e+01
9.098989e+01 -1.946859e+01 2.362698e+01 5.305000e+01
9.139299e+01 -1.953721e+01 2.323292e+01 5.310000e+01
9.179612e+01 -1.959793e+01 2.283754e+01 5.315000e+01
9.219923e+01 -1.965073e+01 2.244104e+01 5.320000e+01
9.260233e+01 -1.969559e+01 2.204358e+01 5.325000e+01
9.300545e+01 -1.973249e+01 2.164528e+01 5.330000e+01
9.340857e+01 -1.976142e+01 2.124632e+01 5.335000e+01
9.381167e+01 -1.978237e+01 2.084688e+01 5.340000e+01
9.421479e+01 -1.979532e+01 2.044708e+01 5.345000e+01
9.461789e+01 -1.980028e+01 2.004712e+01 5.350000e+01
9.502101e+01 -1.979723e+01 1.964713e+01 5.355000e+01
9.542413e+01 -1.978619e+01 1.924728e+01 5.360000e+01
9.582724e+01 -1.976715e+01 1.884773e+01 5.365000e+01
9.623035e+01 -1.974013e+01 1.844864e+01 5.370000e+01
9.663346e+01 -1.970513e+01 1.805018e+01 5.375000e+01
9.703658e+01 -1.966217e+01 1.765249e+01 5.380000e+01
9.743969e+01 -1.961126e+01 1.725575e+01 5.385000e+01
9.784280e+01 -1.955243e+01 1.686010e+01 5.390000e+01
9.824592e+01 -1.948570e+01 1.646570e+01 5.395000e+01
9.864903e+01 -1.941109e+01 1.607272e+01 5.400000e+01
9.905214e+01 -1.932865e+01 1.568131e+01 5.405000e+01
9.945525e+01 -1.923839e+01 1.529163e+01 5.410000e+01
9.985837e+01 -1.914035e+01 1.490383e+01 5.415000e+01
1.002615e+02 -1.903458e+01 1.451806e+01 5.420000e+01
1.006646e+02 -1.892111e+01 1.413449e+01 5.425000e+01
1.010677e+02 -1.880000e+01 1.375327e+01 5.430000e+01
1.014708e+02 -1.867129e+01 1.337454e+01 5.435000e+01
1.018739e+02 -1.853503e+01 1.299847e+01 5.440000e+01
1.022770e+02 -1.839127e+01 1.262519e+01 5.445000e+01
1.026802e+02 -1.824008e+01 1.225487e+01 5.450000e+01
1.030833e+02 -1.808151e+01 1.188764e+01 5.455000e+01
1.034864e+02 -1.791563e+01 1.152366e+01 5.460000e+01
1.038895e+02 -1.774251e+01 1.116306e+01 5.465000e+01
1.042926e+02 -1.756221e+01 1.080600e+01 5.470000e+01
1.046957e+02 -1.737480e+01 1.045262e+01 5.475000e+01
1.050988e+02 -1.718036e+01 1.010306e+01 5.480000e+01
1.055019e+02 -1.697898e+01 9.757454e+00 5.485000e+01
1.059051e+02 -1.677072e+01 9.415944e+00 5.490000e+01
1.063082e+02 -1.655567e+01 9.078670e+00 5.495000e+01
1.067113e+02 -1.633392e+01 8.745762e+00 5.500000e+01
1.071144e+02 -1.610556e+01 8.417358e+00 5.505000e+01
1.075175e+02 -1.587067e+01 8.093584e+00 5.510000e+01
1.079206e+02 -1.562936e+01 7.774574e+00 5.515000e+01
1.083237e+02 -1.538171e+01 7.460452e+00 5.520000e+01
1.087269e+02 -1.512784e+01 7.151346e+00 5.525000e+01
1.091300e+02 -1.486783e+01 6.847380e+00 5.530000e+01
1.095331e+02 -1.460179e+01 6.548674e+00 5.535000e+01
1.099362e+02 -1.432984e+01 6.255348e+00 5.540000e+01
1.103393e+02 -1.405207e+01 5.967518e+00 5.545000e+01
1.107424e+02 -1.376860e+01 5.685302e+00 5.550000e+01
1.111455e+02 -1.347955e+01 5.408812e+00 5.555000e+01
1.115486e+02 -1.318502e+01 5.138156e+00 5.560000e+01
1.119518e+02 -1.288514e+01 4.873446e+00 5.565000e+01
1.123549e+02 -1.258003e+01 4.614786e+00 5.570000e+01
1.127580e+02 -1.226980e+01 4.362280e+00 5.575000e+01
1.131611e+02 -1.195458e+01 4.116028e+00 5.580000e+01
1.135642e+02 -1.163451e+01 3.876128e+00 5.585000e+01
1.139673e+02 -1.130970e+01 3.642678e+00 5.590000e+01
1.143704e+02 -1.098029e+01 3.415772e+00 5.595000e+01
1.147735e+02 -1.064640e+01 3.195498e+00 5.600000e+01
1.151767e+02 -1.030818e+01 2.981944e+00 5.605000e+01
1.155798e+02 -9.965750e+00 2.775198e+00 5.610000e+01
1.159829e+02 -9.619258e+00 2.575342e+00 5.615000e+01
1.163860e+02 -9.268838e+00 2.382454e+00 5.620000e+01
1.167891e+02 -8.914630e+00 2.196612e+00 5.625000e+01
1.171922e+02 -8.556776e+00 2.017892e+00 5.630000e+01
1.175953e+02 -8.195420e+00 1.846365e+00 5.635000e+01
1.179984e+02 -7.830706e+00 1.682098e+00 5.640000e+01
1.184016e+02 -7.462780e+00 1.525158e+00 5.645000e+01
1.188047e+02 -7.091788e+00 1.375608e+00 5.650000e+01
1.192078e+02 -6.717880e+00 1.233506e+00 5.655000e+01
1.196109e+02 -6.341206e+00 1.098911e+00 5.660000e+01
1.200140e+02 -5.961914e+00 9.718756e-01 5.665000e+01
1.204171e+02 -5.580158e+00 8.524508e-01 5.670000e+01
1.208202e+02 -5.196090e+00 7.406846e-01 5.675000e+01
1.212233e+02 -4.809864e+00 6.366216e-01 5.680000e+01
1.216265e+02 -4.421632e+00 5.403034e-01 5.685000e+01
1.220296e+02 -4.031554e+00 4.517686e-01 5.690000e+01
1.224327e+02 -3.639782e+00 3.710526e-01 5.695000e+01
1.228358e+02 -3.246474e+00 2.981876e-01 5.700000e+01
1.232389e+02 -2.851790e+00 2.332028e-01 5.705000e+01
1.236420e+02 -2.455882e+00 1.761242e-01 5.710000e+01
1.240451e+02 -2.058914e+00 1.269746e-01 5.715000e+01
1.244483e+02 -1.661041e+00 8.577364e-02 5.720000e+01
1.248514e+02 -1.262424e+00 5.253788e-02 5.725000e+01
1.252545e+02 -8.632224e-01 2.728056e-02 5.730000e+01
1.256576e+02 -4.635954e-01 1.001181e-02 5.735000e+01
1.260607e+02 -6.370290e-02 7.385188e-04 5.740000e+01
1.264638e+02 3.362950e-01 -5.356020e-04 5.745000e+01
1.268669e+02 7.362386e-01 6.189958e-03 5.750000e+01
1.272700e+02 1.135967e+00 2.091250e-02 5.755000e+01
1.276732e+02 1.535322e+00 4.362616e-02 5.760000e+01
1.280763e+02 1.934143e+00 7.432184e-02 5.765000e+01
1.284794e+02 2.332270e+00 1.129872e-01 5.770000e+01
1.288825e+02 2.729544e+00 1.596069e-01 5.775000e+01
1.292856e+02 3.125806e+00 2.141622e-01 5.780000e+01
1.296887e+02 3.520898e+00 2.766314e-01 5.785000e+01
1.300918e+02 3.914662e+00 3.469892e-01 5.790000e+01
1.304949e+02 4.306938e+00 4.252078e-01 5.795000e+01
1.308981e+02 4.697574e+00 5.112558e-01 5.800000e+01
1.313012e+02 5.086410e+00 6.050988e-01 5.805000e+01
1.317043e+02 5.473292e+00 7.066992e-01 5.810000e+01
1.321074e+02 5.858064e+00 8.160164e-01 5.815000e+01
1.325105e+02 6.240574e+00 9.330068e-01 5.820000e+01
1.329136e+02 6.620666e+00 1.057623e+00 5.825000e+01
1.333167e+02 6.998190e+00 1.189816e+00 5.830000e+01
1.337198e+02 7.372996e+00 1.329533e+00 5.835000e+01
1.341230e+02 7.744934e+00 1.476717e+00 5.840000e+01
1.345261e+02 8.113852e+00 1.631310e+00 5.845000e+01
1.349292e+02 8.479606e+00 1.793250e+00 5.850000e+01
1.353323e+02 8.842046e+00 1.962472e+00 5.855000e+01
1.357354e+02 9.201032e+00 2.138908e+00 5.860000e+01
1.361385e+02 9.556416e+00 2.322490e+00 5.865000e+01
1.365416e+02 9.908058e+00 2.513140e+00 5.870000e+01
1.369448e+02 1.025582e+01 2.710786e+00 5.875000e+01
1.373479e+02 1.059955e+01 2.915346e+00 5.880000e+01
1.377510e+02 1.093913e+01 3.126740e+00 5.885000e+01
1.381541e+02 1.127441e+01 3.344882e+00 5.890000e+01
1.385572e+02 1.160526e+01 3.569688e+00 5.895000e+01
1.389603e+02 1.193155e+01 3.801064e+00 5.900000e+01
1.393634e+02 1.225315e+01 4.038918e+00 5.905000e+01
1.397665e+02 1.256993e+01 4.283158e+00 5.910000e+01
1.401697e+02 1.288176e+01 4.533682e+00 5.915000e+01
1.405728e+02 1.318851e+01 4.790394e+00 5.920000e+01
1.409759e+02 1.349007e+01 5.053188e+00 5.925000e+01
1.413790e+02 1.378632e+01 5.321962e+00 5.930000e+01
1.417821e+02 1.407713e+01 5.596604e+00 5.935000e+01
1.421852e+02 1.436239e+01 5.877010e+00 5.940000e+01
1.425883e+02 1.464199e+01 6.163062e+00 5.945000e+01
1.429914e+02 1.491580e+01 6.454650e+00 5.950000e+01
1.433946e+02 1.518374e+01 6.751656e+00 5.955000e+01
1.437977e+02 1.544568e+01 7.053960e+00 5.960000e+01
1.442008e+02 1.570152e+01 7.361442e+00 5.965000e+01
1.446039e+02 1.595116e+01 7.673980e+00 5.970000e+01
1.450070e+02 1.619450e+01 7.991446e+00 5.975000e+01
1.454101e+02 1.643144e+01 8.313716e+00 5.980000e+01
1.458132e+02 1.666189e+01 8.640660e+00 5.985000e+01
1.462163e+02 1.688576e+01 8.972148e+00 5.990000e+01
1.466195e+02 1.710295e+01 9.308046e+00 5.995000e+01
1.470226e+02 1.731338e+01 9.648222e+00 6.000000e+01
1.474257e+02 1.751697e+01 9.992536e+00 6.005000e+01
1.478288e+02 1.771363e+01 1.034085e+01 6.010000e+01
1.482319e+02 1.790328e+01 1.069303e+01 6.015000e+01
1.486350e+02 1.808585e+01 1.104894e+01 6.020000e+01
1.490381e+02 1.826127e+01 1.140842e+01 6.025000e+01
1.494413e+02 1.842947e+01 1.177134e+01 6.030000e+01
1.498444e+02 1.859037e+01 1.213755e+01 6.035000e+01
1.502475e+02 1.874392e+01 1.250691e+01 6.040000e+01
1.506506e+02 1.889005e+01 1.287926e+01 6.045000e+01
1.510537e+02 1.902870e+01 1.325446e+01 6.050000e+01
1.514568e+02 1.915982e+01 1.363236e+01 6.055000e+01
1.518599e+02 1.928336e+01 1.401280e+01 6.060000e+01
1.522630e+02 1.939927e+01 1.439564e+01 6.065000e+01
